995,995,995,995,995,995,995,995,1000,997,995,994,992,993,992,989,988,987,990,993,989,988,986,988,993,997,993,986,983,977,979,975,974,972,969,969,969,971,973,971,969,966,966,966,966,967,965,963,967,969,969,968,967,963,966,964,968,966,964,961,960,957,952,947,947,943,933,927,927,939,958,980,1010,1048,1099,1148,1180,1192,1177,1128,1058,991,951,937,939,950,958,959,957,955,958,959,961,962,960,957,956,959,955,957,958,957,958,959,958,958,955,953,957,959,963,960,960,958,956,957,956,955,953,953,956,958,958,958,956,954,959,959,958,958,957,957,956,958,956,954,953,954,955,958,960,957,958,955,958,957,957,955,955,953,956,956,957,958,954,954,955,957,957,957,954,953,953,955,955,957,954,952,952,952,951,952,950,947,950,952,953,952,949,949,951,951,952,952,951,950,953,958,959,959,957,956,961,964,964,966,965,966,967,969,973,974,974,971,973,975,978,975,975,973,973,976,974,973,975,973,974,974,971,972,972,971,970,971,972,969,968,966,969,970,972,968,968,967,969,969,971,970,967,966,968,969,967,968,964,964,963,965,964,962,962,963,965,967,967,966,965,962,966,965,964,963,962,959,962,964,966,962,959,958,961,964,963,962,960,958,959,961,962,963,963,962,964,963,966,964,964,963,963,966,968,965,963,961,963,965,966,968,970,969,969,970,974,974,973,979,980,983,984,983,981,978,980,979,979,979,978,977,976,977,980,982,983,975,967,967,964,962,958,958,959,961,960,961,959,956,955,956,956,954,955,953,958,957,958,960,955,953,956,958,959,958,954,951,952,948,939,935,929,922,917,923,941,964,992,1021,1071,1122,1168,1199,1212,1205,1175,1122,1057,1002,970,946,934,929,933,939,946,946,947,946,948,948,948,945,947,947,947,949,945,942,942,944,945,946,943,945,947,949,946,946,943,942,942,946,946,945,943,941,944,942,943,942,941,942,944,944,945,946,943,942,946,946,947,947,942,943,945,946,949,946,945,942,944,946,946,947,943,941,941,944,945,943,941,940,940,942,941,939,940,937,938,938,940,938,934,933,934,937,935,934,933,930,932,933,934,933,930,929,932,934,935,936,937,936,942,945,950,951,952,951,956,959,961,960,958,958,960,962,964,964,960,960,961,963,963,965,960,958,963,962,964,964,960,959,962,963,961,963,961,961,962,965,966,963,962,960,961,964,961,961,961,958,961,960,961,959,957,956,957,957,958,959,955,954,955,957,958,958,955,955,955,960,958,957,956,953,957,958,958,957,953,952,953,954,956,955,955,955,955,958,958,957,955,954,954,956,958,955,955,953,954,956,958,956,956,956,958,957,958,957,955,955,956,958,961,965,964,965,967,969,971,971,971,973,974,976,979,981,976,975,976,975,977,975,974,969,969,971,974,979,980,978,971,970,968,967,963,960,956,958,957,957,953,950,952,955,954,953,951,949,948,950,951,951,948,947,948,949,953,950,946,943,942,937,931,926,920,913,910,919,943,974,1006,1048,1106,1162,1201,1216,1194,1128,1034,960,924,923,935,941,945,946,945,946,945,943,945,943,946,945,945,942,943,944,944,941,943,940,941,943,943,940,940,937,940,942,942,943,939,938,940,941,942,942,939,940,944,945,944,944,945,941,943,946,944,944,941,939,939,941,941,942,939,939,940,941,944,944,942,939,942,943,945,944,944,943,947,944,946,946,944,941,943,943,942,941,940,940,939,941,941,942,937,938,937,940,940,940,940,939,939,941,945,945,946,949,952,956,957,958,957,957,959,960,963,963,961,962,963,964,964,964,962,962,962,961,964,963,961,960,959,962,963,963,960,959,963,962,965,962,959,958,960,960,960,959,954,954,956,957,958,957,956,952,954,954,953,952,953,951,953,954,956,953,954,951,951,954,953,954,950,948,950,952,951,952,951,948,950,951,954,954,954,950,951,955,955,956,953,951,952,953,953,953,949,947,953,952,953,952,952,950,952,955,953,955,955,955,956,962,963,963,962,963,966,967,969,968,968,969,971,973,975,972,971,969,968,971,970,969,968,969,968,969,971,973,976,972,968,962,962,955,952,948,947,948,950,949,947,946,945,947,947,947,945,943,944,949,949,946,945,941,943,944,946,943,939,932,929,923,922,919,916,904,895,898,909,925,947,970,1001,1042,1098,1151,1186,1196,1178,1119,1037,963,924,920,929,942,946,946,944,942,943,947,946,945,943,942,943,944,946,945,942,941,942,945,943,942,943,943,942,946,947,946,945,944,944,944,945,945,943,943,944,945,947,949,947,945,946,947,949,947,945,945,947,949,949,947,945,946,946,951,949,947,945,948,947,949,948,946,948,949,949,949,949,948,946,946,951,950,949,947,946,946,949,951,947,948,946,949,949,951,950,947,945,947,947,950,951,950,949,954,957,960,961,960,959,961,965,967,964,965,967,967,968,970,968,966,965,965,966,968,966,965,962,965,967,968,969,965,963,964,965,965,967,964,963,964,965,964,963,961,962,961,965,964,962,958,956,958,960,960,961,959,957,958,961,960,960,958,955,956,957,958,957,955,954,955,956,957,957,958,957,956,957,960,956,956,954,951,952,955,955,954,954,954,956,956,955,955,948,952,952,955,955,954,953,955,958,958,957,957,956,958,960,966,966,964,963,967,968,969,968,969,970,971,974,978,975,976,973,973,975,977,973,971,972,973,970,971,968,973,974,975,971,968,964,961,959,957,955,958,957,955,952,954,956,957,955,952,951,949,950,951,951,948,949,949,951,950,952,950,948,951,952,954,953,950,947,945,938,935,927,921,911,913,929,953,980,1013,1061,1119,1165,1188,1180,1131,1053,984,940,924,928,934,942,944,946,946,944,943,939,939,943,945,943,943,941,943,947,946,945,945,945,945,947,946,946,944,939,942,944,945,944,943,939,941,943,943,943,942,941,943,940,943,942,942,940,941,943,945,945,945,944,945,945,943,943,940,937,941,943,945,946,941,943,943,944,945,945,943,940,941,944,945,944,943,939,939,939,940,939,934,935,934,937,935,930,933,932,936,937,939,938,935,934,935,938,940,942,939,940,943,948,950,951,951,951,955,958,961,963,963,960,962,962,963,962,961,960,961,963,963,965,962,960,962,961,965,964,963,964,967,968,966,965,963,959,963,964,964,961,959,957,959,961,960,957,958,956,959,959,960,961,957,957,955,957,959,958,961,957,958,958,958,958,957,956,958,960,961,959,957,953,955,956,957,960,959,954,958,961,961,958,958,957,957,958,958,958,956,956,956,959,959,959,955,954,956,958,960,962,963,963,969,970,973,972,971,972,974,977,977,980,977,977,980,978,979,977,975,973,976,978,978,974,973,974,978,983,985,982,978,970,970,967,967,962,958,956,956,955,954,954,956,953,955,956,956,955,953,950,953,950,955,956,952,948,952,955,954,954,953,948,946,945,939,933,929,922,915,916,925,943,965,992,1032,1087,1143,1184,1201,1183,1128,1050,981,939,924,926,934,944,946,945,945,944,946,948,947,947,944,942,942,946,946,943,943,941,942,945,945,944,941,941,941,944,946,946,942,941,943,945,945,945,943,942,942,944,946,945,942,939,941,943,942,943,941,939,939,942,945,946,944,942,942,944,946,942,940,940,941,941,943,940,941,939,942,944,943,944,944,942,944,945,945,943,942,939,939,942,942,940,938,935,936,937,938,938,934,935,935,937,937,935,936,934,938,938,941,944,944,947,951,957,958,959,958,958,962,965,967,966,966,962,965,967,968,964,966,965,966,968,969,969,966,966,967,970,970,970,969,966,967,969,969,966,965,963,965,965,967,966,964,963,962,965,964,963,962,959,959,961,962,961,961,959,960,962,960,961,958,958,960,962,962,962,958,957,958,960,959,959,958,957,958,959,959,960,959,958,959,961,963,959,961,957,958,962,960,958,958,957,958,958,960,960,958,958,959,961,961,961,958,958,960,961,963,963,965,961,964,969,973,973,972,971,973,977,978,979,980,980,981,984,983,983,979,977,976,978,981,976,976,974,977,982,984,980,973,969,967,964,963,960,958,959,960,958,958,957,956,955,956,957,960,959,957,955,955,955,957,956,955,953,956,956,956,956,955,953,951,950,943,935,928,925,920,917,923,941,968,997,1037,1084,1140,1186,1213,1208,1179,1113,1028,965,935,930,939,948,952,952,950,948,948,949,950,951,950,947,947,949,950,950,947,945,947,947,946,947,945,942,944,945,948,945,945,944,944,945,946,946,945,943,946,947,949,949,948,946,947,950,950,950,949,947,950,946,949,950,948,946,946,947,949,949,947,945,946,947,949,948,947,946,948,948,950,950,951,946,951,951,952,949,948,944,946,949,949,950,947,946,946,946,946,949,947,945,948,950,949,949,946,943,949,950,952,949,947,948,950,952,955,955,958,958,961,962,965,967,967,965,968,970,968,968,968,966,966,968,969,968,967,966,966,968,968,967,966,964,965,967,968,967,967,965,967,968,969,968,966,962,963,967,970,970,969,967,967,970,971,971,971,968,971,975,977,977,974,974,975,981,980,975,973,978,983,982,980,978,976,976,975,974,970,967,961,960,960,962,958,956,955,952,951,952,954,953,949,947,949,950,951,951,950,948,952,954,953,953,954,951,954,954,956,953,954,949,951,949,944,938,929,920,920,914,910,916,935,963,996,1029,1076,1126,1171,1193,1199,1171,1104,1019,957,928,930,941,949,951,947,944,948,946,949,947,945,943,946,948,947,947,945,944,943,944,946,946,945,944,946,947,946,947,942,940,943,942,946,946,946,944,944,946,949,948,945,944,946,944,946,945,942,941,943,947,947,948,944,944,945,946,948,949,945,945,947,948,949,947,946,944,944,947,948,945,946,944,945,947,948,947,945,943,944,946,948,948,947,943,945,944,946,944,943,939,940,943,944,943,943,941,944,946,948,947,945,943,946,950,950,950,947,950,953,955,956,957,956,953,957,959,962,963,963,960,961,962,963,963,958,959,955,959,961,961,963,962,962,964,963,963,961,960,959,961,963,961,959,959,958,961,961,962,958,956,957,958,955,953,951,950,955,956,956,955,952,951,952,952,955,953,951,954,952,954,956,955,953,950,954,954,954,955,954,953,952,955,953,954,952,950,953,953,954,953,952,946,947,952,952,950,950,946,949,950,954,956,955,952,952,954,954,957,952,951,951,952,952,951,949,947,947,951,950,949,950,949,951,953,953,952,951,950,952,954,956,955,956,954,955,954,952,954,952,950,952,952,953,952,949,949,950,954,953,952,951,949,950,951,952,953,952,952,954,956,955,955,953,952,952,951,955,953,954,952,953,952,955,957,958,958,962,963,964,963,965,963,967,969,971,973,973,972,971,973,973,972,968,966,968,970,973,969,966,960,964,965,970,971,970,967,964,962,961,960,954,950,951,951,951,950,950,950,948,952,949,949,944,940,943,944,947,948,944,941,943,945,945,945,942,938,936,933,926,927,920,910,909,919,940,963,986,1020,1068,1121,1167,1193,1201,1182,1136,1069,1010,967,939,924,914,917,924,931,934,934,937,940,942,942,941,940,939,940,938,938,936,934,934,938,938,938,935,935,936,939,938,938,939,935,935,938,937,937,935,935,937,938,939,938,938,936,940,938,939,938,936,936,938,938,941,939,938,933,935,935,938,938,936,936,937,938,941,941,939,939,940,943,943,941,941,939,938,943,943,943,943,938,941,942,941,938,935,931,932,934,933,932,931,927,925,929,926,924,925,921,924,927,926,927,924,924,926,928,932,932,930,931,936,938,939,942,942,944,946,948,953,954,953,954,956,958,959,963,960,961,963,964,963,963,962,958,962,961,961,960,959,959,959,962,962,961,959,958,959,959,961,960,958,957,958,961,960,960,957,957,959,959,960,960,959,954,955,955,957,955,953,953,953,955,957,957,955,953,956,957,958,957,955,954,954,956,957,958,952,953,955,957,955,954,952,948,950,955,955,954,953,951,952,955,955,954,952,952,954,953,956,955,953,953,953,956,956,955,951,950,954,958,960,961,965,963,965,964,967,969,972,969,971,972,974,975,973,971,972,972,974,972,968,968,969,967,968,973,975,975,972,967,966,964,960,957,953,954,953,953,949,947,948,952,954,952,951,950,950,951,952,951,950,947,947,951,952,948,947,945,945,947,948,945,939,931,924,921,918,912,907,918,942,973,1003,1045,1095,1144,1186,1202,1190,1140,1061,983,934,919,925,931,937,941,941,941,944,945,943,939,937,941,941,941,941,938,940,942,943,940,942,940,944,945,947,944,944,944,944,945,944,944,944,942,945,942,944,945,943,942,941,943,944,945,943,941,943,941,942,943,943,942,943,944,945,943,943,944,945,946,945,946,945,940,941,943,944,944,941,940,942,945,944,943,941,937,941,941,944,943,940,938,939,942,942,943,941,939,939,940,942,942,940,938,939,940,943,941,942,942,947,950,952,954,954,954,957,960,963,961,961,960,963,963,965,966,965,965,967,967,970,968,968,965,968,967,969,967,965,963,965,967,967,966,964,962,965,964,966,967,963,962,964,965,963,964,963,960,960,962,964,962,960,956,958,962,961,959,959,955,958,960,960,957,957,953,956,960,961,958,956,956,954,958,958,956,954,953,955,957,957,956,956,955,957,957,959,959,957,956,956,960,961,960,957,957,960,959,961,960,960,955,957,960,962,960,960,956,958,960,962,962,962,965,968,973,974,974,973,972,976,980,978,978,981,980,979,978,978,977,975,973,976,977,975,977,978,980,985,980,975,972,970,966,964,963,963,960,958,954,954,957,957,957,956,954,954,955,957,955,953,950,954,955,957,957,957,953,953,955,953,945,934,928,923,919,915,924,945,973,1010,1053,1109,1161,1199,1209,1183,1118,1028,959,930,927,942,951,953,951,948,947,948,950,950,949,947,945,947,948,947,949,946,943,943,946,947,947,946,942,944,946,947,947,945,946,945,948,949,948,947,944,947,948,949,948,945,945,947,949,950,951,947,945,947,947,950,949,950,949,949,950,953,951,948,949,950,948,951,950,949,946,948,949,948,950,949,948,947,947,950,949,949,948,948,948,948,949,946,945,947,947,949,949,947,947,946,950,951,951,949,947,954,955,959,959,958,959,959,961,961,961,964,964,967,970,971,972,969,967,971,973,974,970,968,967,967,968,970,970,970,967,968,969,970,971,969,966,967,967,969,970,968,965,968,970,970,969,967,964,965,966,965,964,966,963,965,966,965,966,962,960,961,961,964,963,961,958,960,963,961,963,961,959,962,965,964,963,962,959,961,961,963,963,959,960,960,962,963,960,960,960,962,963,966,967,966,963,962,964,964,962,961,961,962,965,964,965,961,962,966,971,976,973,976,974,979,979,981,982,984,985,985,988,989,988,983,981,982,982,982,982,981,979,982,988,990,987,976,973,973,970,969,967,964,964,961,963,964,965,964,961,962,962,964,964,963,961,959,960,960,960,959,956,957,959,961,960,955,950,945,939,935,931,922,918,927,950,977,1006,1045,1099,1155,1188,1197,1171,1114,1036,970,938,932,941,947,951,953,953,955,954,954,952,955,956,956,957,957,953,955,956,957,956,954,951,952,951,954,955,951,952,954,953,954,953,954,952,957,957,958,956,954,954,955,957,955,953,953,950,953,954,955,951,951,950,951,953,955,955,955,956,957,959,957,955,954,954,953,953,952,954,952,951,955,955,958,954,955,953,954,956,957,954,951,948,947,953,952,953,950,947,950,950,954,955,951,951,952,955,958,958,958,957,961,962,967,966,966,964,968,969,972,972,970,971,973,974,975,975,973,971,972,973,976,974,973,969,969,971,970,969,968,966,968,969,970,970,968,966,968,967,969,966,968,966,968,967,969,968,965,963,964,964,963,961,960,962,962,964,962,962,960,959,962,960,962,962,961,959,961,963,961,962,960,959,959,960,963,963,964,961,964,962,961,963,962,960,962,964,965,964,961,959,959,963,962,966,961,959,960,966,968,972,972,971,972,974,978,980,980,977,980,983,983,982,982,978,976,978,979,977,974,971,972,975,981,981,975,968,969,969,965,962,959,956,956,959,961,962,961,958,958,959,959,957,955,954,954,954,955,954,951,952,954,953,955,955,954,951,948,943,939,936,930,920,916,926,946,972,1001,1041,1096,1147,1180,1191,1168,1106,1030,973,941,930,931,937,945,949,950,949,949,946,944,948,947,947,947,947,950,950,952,948,948,947,950,950,951,949,947,946,946,947,947,945,946,944,943,946,945,946,943,943,944,949,948,946,945,945,946,946,947,943,944,943,945,946,945,946,944,943,943,946,946,945,944,944,945,948,950,948,947,945,946,948,948,947,946,946,944,944,943,941,940,938,938,939,940,938,935,931,933,936,939,937,934,936,935,939,939,939,938,938,941,941,947,949,947,950,952,954,957,957,959,960,959,963,965,964,966,965,966,966,967,967,967,966,966,967,970,970,968,966,967,969,969,969,966,963,963,964,968,966,963,961,962,965,966,964,963,963,962,964,965,963,963,961,962,962,965,964,963,962,963,963,965,964,961,959,960,960,961,962,959,957,958,960,960,962,958,958,959,962,963,963,960,958,959,964,962,963,961,958,958,958,960,959,959,957,959,961,962,961,960,959,961,962,963,962,961,960,961,962,965,965,963,962,964,968,969,971,969,969,972,976,976,977,976,977,979,981,983,983,982,981,980,980,981,980,980,978,978,976,982,980,978,973,977,982,986,983,979,972,969,968,967,963,960,961,957,959,957,960,959,960,959,959,962,963,960,960,958,960,960,958,958,952,953,958,959,959,957,954,956,955,953,947,939,934,930,927,922,921,933,959,991,1026,1074,1127,1172,1201,1211,1191,1129,1048,978,939,933,940,948,952,951,949,948,953,953,950,949,947,948,951,950,950,951,948,950,949,951,950,948,949,951,952,952,953,953,950,951,953,954,954,954,952,952,952,954,953,951,950,952,954,953,954,953,950,949,952,954,955,954,950,950,953,954,955,952,950,951,952,954,953,951,951,950,951,954,954,952,952,953,955,954,955,953,950,951,953,952,951,951,948,947,949,950,949,947,945,949,947,948,950,947,947,948,950,952,954,957,958,961,965,966,966,967,966,968,968,972,973,970,969,972,974,975,974,972,971,975,977,975,976,974,971,974,974,974,974,973,971,972,976,974,975,974,970,971,970,971,971,969,967,969,971,970,970,968,967,967,968,967,968,967,964,966,967,970,968,965,966,966,965,966,967,963,961,962,962,966,965,962,960,961,962,964,964,961,960,961,960,966,964,964,961,962,964,964,966,962,959,961,963,963,963,961,959,960,962,964,965,961,960,963,964,966,965,965,962,965,965,967,965,965,962,964,967,968,969,968,971,975,978,976,976,976,975,980,980,981,984,984,982,983,985,983,982,981,979,979,984,984,982,979,980,985,988,989,983,975,971,969,968,967,964,962,959,960,959,962,959,958,956,957,958,959,960,956,955,956,958,957,958,956,956,957,957,958,957,955,949,945,938,936,934,934,929,928,922,914,909,915,926,949,974,1000,1036,1081,1129,1172,1196,1202,1170,1109,1027,967,937,934,937,947,948,950,950,950,952,952,950,947,951,952,951,951,949,947,952,951,953,949,948,949,953,953,952,951,948,950,953,954,953,951,948,951,953,953,951,947,946,949,953,951,952,953,951,951,953,955,955,951,952,949,953,952,951,951,950,952,953,952,951,947,948,951,953,957,952,952,947,948,949,952,952,951,949,951,953,952,954,952,950,950,951,950,948,946,947,948,950,950,951,951,946,949,950,953,951,952,950,954,956,959,960,961,959,962,965,967,966,966,969,970,971,972,972,969,969,967,972,972,971,970,968,969,973,973,975,973,972,973,973,972,971,968,965,966,969,968,968,968,967,967,968,970,967,964,962,964,966,968,964,966,962,964,965,966,967,965,959,961,962,963,964,961,958,960,960,961,960,959,957,958,959,962,961,961,957,960,962,961,962,960,957,959,959,961,962,960,958,960,960,962,958,958,955,956,958,960,961,957,957,958,962,962,961,958,960,961,964,967,968,971,972,971,972,973,972,974,973,976,978,983,982,979,977,979,979,978,979,976,976,978,977,974,974,973,977,980,983,981,976,971,968,968,970,970,966,960,957,956,958,958,957,954,952,954,954,955,954,953,951,952,953,954,956,952,950,950,953,955,954,950,947,942,936,932,926,916,911,914,927,951,973,999,1042,1096,1144,1174,1183,1164,1112,1043,987,950,930,926,930,936,939,942,942,942,940,944,945,943,942,943,940,945,945,946,945,945,942,944,944,942,944,943,942,942,944,946,946,944,944,945,946,947,946,942,942,942,941,942,943,940,940,940,941,942,941,939,939,940,939,940,942,942,941,942,942,944,943,943,939,940,942,944,943,941,940,942,942,944,942,941,940,942,944,946,944,941,940,941,941,944,941,938,934,936,936,937,937,936,934,937,936,938,936,935,935,936,937,940,941,942,943,948,949,950,950,950,952,953,959,963,962,960,959,959,961,964,963,960,958,958,962,962,962,963,962,960,963,964,964,963,960,960,961,961,962,958,957,957,960,961,961,959,958,957,960,964,964,960,960,958,960,960,959,956,953,955,954,955,955,952,952,955,956,956,953,954,954,953,956,957,956,954,953,953,953,955,955,954,952,951,951,954,954,952,950,952,954,957,954,954,955,956,956,956,956,955,954,952,954,957,955,954,954,953,956,957,958,956,953,953,958,961,961,961,960,964,964,968,971,968,967,971,977,978,978,975,973,974,975,974,973,971,970,966,968,969,972,973,972,969,965,964,963,957,953,954,954,954,953,950,950,952,951,953,951,949,947,948,949,953,950,947,946,946,950,952,950,948,947,948,949,950,948,943,935,931,928,927,919,913,917,934,959,987,1019,1061,1110,1156,1187,1194,1174,1121,1046,982,946,932,927,930,934,939,941,943,941,941,940,944,945,947,945,944,940,942,944,944,943,943,937,940,942,943,941,938,936,937,941,940,938,941,938,939,940,940,941,939,939,940,942,942,942,940,938,940,941,945,943,941,938,940,940,941,940,939,936,938,939,941,940,939,936,938,938,939,940,941,939,938,939,941,943,943,939,941,940,940,940,937,937,936,940,938,934,933,931,931,931,931,931,930,926,927,932,933,932,933,933,936,939,941,944,943,944,947,951,951,952,950,949,953,956,958,958,958,956,957,960,963,961,960,960,960,961,962,962,961,958,960,960,962,960,958,956,958,959,959,960,956,954,956,960,961,959,956,955,955,956,958,957,955,952,953,956,958,957,955,951,950,954,956,957,952,953,956,957,957,960,957,953,954,955,956,957,954,950,952,953,954,955,951,952,952,954,955,953,953,951,952,955,955,954,953,952,953,954,957,957,953,955,956,958,956,955,954,953,954,957,958,958,958,958,963,967,969,968,967,966,969,972,975,976,976,976,977,979,980,978,976,973,973,976,976,974,970,970,976,978,979,971,965,963,959,961,959,958,955,952,951,953,955,956,957,952,953,955,957,953,954,949,949,951,951,954,950,948,951,950,953,950,948,947,947,944,938,931,927,920,913,919,937,963,993,1026,1076,1131,1176,1202,1205,1165,1096,1018,960,933,929,936,945,948,948,947,945,944,943,945,942,946,945,943,943,945,947,947,943,943,944,947,948,947,943,942,944,945,947,945,942,943,943,945,946,945,945,943,942,944,947,945,944,945,947,947,949,949,948,945,947,946,947,948,946,944,944,946,951,949,947,944,944,946,948,949,947,945,948,950,951,951,949,947,949,949,951,950,949,944,945,943,950,947,944,942,944,945,949,948,947,943,947,949,950,951,951,954,953,960,962,962,963,962,966,968,968,970,968,967,968,967,971,970,969,966,966,969,969,970,969,966,967,967,972,972,969,967,969,971,970,968,966,965,964,968,968,969,966,964,963,967,967,967,965,964,964,965,968,965,966,963,963,964,967,967,962,961,963,963,965,964,960,957,960,960,962,961,962,958,960,962,963,963,961,961,961,963,963,964,962,962,962,962,965,964,959,959,958,960,962,963,961,958,960,962,963,964,965,960,962,964,969,970,972,974,977,978,979,978,978,976,978,979,983,983,984,982,985,984,986,984,982,979,979,980,980,980,978,974,975,978,983,987,985,979,974,973,971,969,963,960,959,959,958,958,959,957,956,957,960,957,955,953,954,953,954,955,956,953,954,956,956,956,953,944,937,933,930,924,916,915,931,953,982,1017,1061,1111,1159,1188,1189,1152,1088,1010,956,935,935,942,948,949,949,950,951,952,950,949,950,952,954,953,951,948,948,950,951,951,948,947,946,948,949,949,948,946,948,949,950,951,949,947,951,952,954,953,953,950,951,954,952,951,951,949,949,953,953,950,949,948,947,950,950,952,950,949,951,953,955,952,953,951,952,955,957,957,953,953,954,956,954,954,953,951,952,951,951,951,950,949,948,951,954,952,951,948,949,950,952,951,949,948,949,952,953,953,953,954,954,956,958,959,957,957,958,962,964,965,963,962,967,967,971,970,967,966,969,970,973,971,971,969,970,972,974,972,970,968,966,966,968,968,966,963,964,964,965,964,966,964,962,962,965,965,964,960,961,961,964,962,963,961,963,963,963,964,963,962,961,961,961,960,957,955,957,962,959,960,958,959,959,960,960,961,959,955,957,959,959,958,957,956,957,959,960,961,957,955,957,959,959,960,959,957,960,960,962,962,960,958,956,959,963,963,966,966,970,971,971,972,972,970,969,972,975,977,978,975,976,978,976,979,976,975,976,980,980,978,975,973,976,981,979,973,967,962,962,958,957,954,954,952,953,956,956,957,954,952,952,955,955,954,954,952,954,954,955,953,953,950,949,946,939,933,929,924,916,910,922,941,957,972,994,1023,1065,1118,1160,1189,1209,1218,1201,1162,1107,1045,994,955,937,931,933,939,941,945,949,950,945,944,944,942,944,943,944,943,945,946,948,947,943,940,943,944,946,948,945,945,944,946,942,943,942,942,945,947,945,943,940,937,941,943,942,944,942,941,942,944,943,946,946,944,946,946,946,945,940,940,941,942,945,945,944,941,941,944,944,947,946,942,945,946,948,949,946,943,940,941,941,941,937,931,933,931,932,935,933,931,929,933,932,934,933,930,933,936,940,941,940,942,942,950,952,954,954,955,957,960,964,960,961,956,959,964,964,964,962,958,962,963,964,963,961,958,962,963,962,963,962,962,962,964,963,962,962,960,961,958,961,960,956,956,957,958,960,960,959,954,956,957,957,955,954,952,952,955,957,957,957,955,957,957,958,957,957,954,955,953,955,955,953,951,952,953,955,955,955,952,955,956,957,956,955,950,950,952,956,954,951,953,954,956,956,953,953,954,954,957,956,956,958,954,961,964,966,969,968,967,969,970,973,976,974,973,976,979,979,976,973,972,969,972,975,973,971,968,970,974,977,978,975,970,968,968,966,961,957,953,953,953,952,952,949,948,952,953,954,955,950,950,953,953,954,955,953,953,952,953,953,953,952,949,950,946,939,931,926,919,912,912,925,952,980,1015,1062,1119,1169,1203,1203,1166,1094,1013,954,928,926,931,941,943,945,943,940,945,941,944,946,947,945,943,945,944,946,946,944,941,943,946,948,948,943,946,944,946,948,948,943,944,942,944,945,944,944,943,946,948,947,947,946,943,944,944,946,946,942,942,943,944,942,943,942,941,942,943,945,943,944,944,945,943,948,947,946,942,945,946,948,947,943,943,943,944,942,942,941,937,938,941,940,940,936,936,937,937,937,938,935,935,940,939,942,943,944,942,948,950,954,956,953,955,956,961,960,964,964,961,963,964,968,966,966,964,965,965,968,967,966,965,967,968,969,971,968,965,968,968,969,966,965,962,966,966,969,970,965,961,962,964,965,966,964,961,963,964,966,962,961,958,962,963,965,965,963,959,961,961,962,964,961,957,959,959,961,962,960,957,959,962,963,963,960,959,961,962,964,961,959,960,960,960,962,962,962,961,963,967,965,963,962,961,964,961,963,963,959,959,961,964,965,962,961,960,961,962,965,967,970,974,975,978,980,979,977,978,980,983,986,986,986,983,983,983,982,981,979,978,979,980,980,976,976,978,983,985,985,980,975,969,972,969,967,964,964,962,962,960,960,959,957,955,957,957,958,957,955,952,955,957,955,955,953,952,953,956,956,954,954,953,953,953,950,939,931,928,924,918,917,927,945,973,1005,1043,1094,1150,1193,1215,1219,1189,1120,1035,970,933,927,936,943,949,949,946,948,952,953,955,951,949,950,950,953,950,949,948,947,948,948,948,947,945,945,946,947,948,948,945,946,948,950,949,947,948,949,951,952,951,951,947,950,951,953,947,945,945,947,950,948,950,949,946,947,948,950,950,947,947,948,947,950,949,949,948,948,953,952,951,950,948,950,949,952,950,948,947,949,949,950,950,947,944,945,947,945,948,944,944,944,946,946,947,944,944,947,948,948,947,947,943,945,948,950,950,948,951,953,957,959,960,960,958,961,964,965,967,965,966,967,970,972,971,969,968,969,970,970,972,970,968,967,969,971,970,967,967,967,969,968,969,967,965,965,967,968,970,967,969,966,967,968,966,964,962,962,962,964,964,961,959,961,963,962,962,961,958,959,960,960,961,959,958,957,959,960,960,961,960,962,962,964,963,960,956,957,958,960,958,958,957,956,957,959,956,955,956,956,959,956,957,956,954,956,958,958,959,957,956,957,961,961,962,960,958,960,963,962,963,965,960,963,966,967,967,967,967,971,974,974,974,974,974,974,978,981,979,979,978,978,979,981,981,978,974,976,978,978,976,974,973,980,984,984,979,971,966,966,964,962,959,957,956,954,956,956,955,958,954,955,955,956,954,953,953,953,955,956,956,953,952,952,953,955,955,952,950,949,950,948,940,931,927,921,915,909,915,934,959,985,1015,1057,1109,1155,1186,1199,1187,1142,1068,994,948,930,931,939,947,949,945,947,949,953,950,952,951,950,950,952,951,949,948,950,950,950,948,947,945,946,948,949,949,945,944,945,950,950,950,951,946,947,949,952,948,946,946,947,949,949,949,948,946,948,951,948,948,947,946,946,948,948,947,945,944,947,948,952,950,949,950,947,950,951,952,951,949,948,951,950,952,950,945,947,947,946,946,946,942,946,948,946,948,945,943,943,945,946,946,942,941,946,948,946,947,946,946,948,952,953,955,956,955,958,960,961,964,963,960,964,969,969,969,969,968,967,969,969,968,965,963,963,964,966,967,965,962,964,964,965,964,963,962,961,963,962,962,961,960,963,966,967,965,964,961,962,961,960,960,958,956,960,962,960,960,958,955,956,958,958,960,958,959,959,960,961,960,958,955,960,961,961,960,959,957,956,958,959,961,957,955,956,959,960,958,955,956,958,956,959,961,962,959,961,958,961,960,959,958,958,961,962,963,962,962,964,967,969,970,970,968,971,973,974,975,974,975,979,981,980,980,978,977,976,976,978,979,976,970,974,973,977,979,981,976,972,969,967,961,960,955,954,954,952,951,953,952,952,952,954,955,953,949,951,954,955,956,957,953,951,954,955,955,953,950,950,951,952,947,941,933,931,932,929,925,913,907,914,932,955,983,1016,1062,1115,1160,1192,1200,1169,1104,1024,968,937,922,927,932,938,943,942,942,941,943,941,945,946,945,943,942,942,945,946,944,944,945,944,947,947,945,942,940,942,944,946,942,941,939,939,943,944,939,941,941,942,943,944,942,943,941,942,944,945,944,943,943,941,943,944,943,942,940,941,944,945,944,941,940,942,944,945,944,941,942,941,941,943,942,940,936,938,938,939,937,937,936,934,934,934,931,930,927,931,933,934,934,930,927,932,935,937,939,938,938,941,947,951,949,952,952,954,957,957,959,957,957,957,962,962,961,961,960,961,965,965,964,963,958,959,961,959,960,958,957,957,958,963,959,959,959,959,962,963,961,959,958,959,959,956,956,956,955,956,959,958,960,959,956,956,957,956,954,953,952,954,955,955,952,953,950,951,954,952,954,952,950,952,953,955,955,954,954,955,957,958,956,955,954,955,955,956,956,955,952,954,955,957,955,955,953,955,957,959,960,963,963,964,967,968,971,969,970,975,976,978,977,978,975,975,976,974,973,973,970,971,971,971,973,974,977,978,974,972,968,963,956,958,957,958,955,954,952,952,952,951,951,953,951,952,952,952,953,949,949,951,952,950,952,948,946,947,947,951,949,949,944,945,938,932,928,922,910,907,921,947,976,1007,1049,1105,1159,1197,1211,1192,1135,1052,984,943,927,927,934,947,947,947,946,947,945,946,947,947,946,945,946,946,945,948,947,946,943,944,945,946,946,946,943,949,946,948,946,947,946,947,950,951,951,948,946,946,947,949,948,946,946,945,949,947,947,944,946,947,947,949,948,945,943,947,948,949,948,948,946,946,948,953,953,950,947,949,947,949,946,946,944,944,947,946,946,943,941,943,943,943,942,939,938,940